; Received from WDC 96/12/04
; Purpose: table of partial sum of absolute broadband solar flux
; Source: Bill Collins, compiled by unknown UCSD/SIO postdoc
; NB: table adds to 1367 W/m2 at 10 microns. 5 W/m2 lay between 5 and 10 microns.
; 97/04/24: CSZ added first line of flux = 198.5 nm = 0 W/m2

; Contents:
; wavlen(920)  real    wavelengths for which solar flux values are tabulated - nanometers
; flux(920)    real    solar flux values obtained from sources given below - w/m**2

; Solar spectrum compiled from following references:
; 1. g.brasseur and p.c.simon (1981):
;    j. geophys. res.,86,7343.
;    for the band 0.200-0.300 microns
; 2. j.c.arvesen, r.n. griffin, and b.d.pearson (1969):
;    appl. opt.,8,2215.
;    for the band 0.310-0.330 microns
; 3. h. neckel and d. labs (1984):
;    solar physics,90,205.
;    for the band 0.330-0.869 microns
; 4. e.v.p.smith and d.m.gottlieb (1974):space. sci. rev. 16:771
;    space sci. rev.,16,771.
;    for the band 0.870-10.075 microns
; Start data:
198.5 0.
199.5 .5498e-02
200.5 .1253e-01
201.5 .1971e-01
202.5 .2758e-01
203.5 .3629e-01
204.5 .4575e-01
205.5 .5531e-01
206.5 .6549e-01
207.5 .7696e-01
208.5 .9152e-01
209.5 .1158e+00
210.5 .1433e+00
211.5 .1771e+00
212.5 .2073e+00
213.5 .2391e+00
214.5 .2801e+00
215.5 .3170e+00
216.5 .3512e+00
217.5 .3873e+00
218.5 .4322e+00
219.5 .4799e+00
220.5 .5280e+00
221.5 .5673e+00
222.5 .6179e+00
223.5 .6838e+00
224.5 .7417e+00
225.5 .7956e+00
226.5 .8366e+00
227.5 .8774e+00
228.5 .9314e+00
229.5 .9792e+00
230.5 .1036e+01
231.5 .1085e+01
232.5 .1140e+01
233.5 .1186e+01
234.5 .1226e+01
235.5 .1282e+01
236.5 .1332e+01
237.5 .1385e+01
238.5 .1427e+01
239.5 .1473e+01
240.5 .1516e+01
241.1 .1569e+01
242.5 .1641e+01
243.5 .1707e+01
244.5 .1769e+01
245.5 .1820e+01
246.5 .1872e+01
247.5 .1929e+01
248.5 .1974e+01
249.5 .2033e+01
250.5 .2092e+01
251.5 .2138e+01
252.5 .2182e+01
253.5 .2238e+01
254.5 .2299e+01
255.5 .2387e+01
256.5 .2494e+01
257.5 .2623e+01
258.5 .2758e+01
259.5 .2865e+01
260.5 .2967e+01
261.5 .3071e+01
262.5 .3191e+01
263.5 .3367e+01
264.5 .3641e+01
265.5 .3921e+01
266.5 .4181e+01
267.5 .4451e+01
268.5 .4711e+01
269.5 .4964e+01
270.5 .5257e+01
271.5 .5489e+01
272.5 .5704e+01
273.5 .5908e+01
274.5 .6045e+01
275.5 .6245e+01
276.5 .6503e+01
277.5 .6744e+01
278.5 .6910e+01
279.5 .6999e+01
280.5 .7111e+01
281.5 .7342e+01
282.5 .7649e+01
283.5 .7979e+01
284.5 .8223e+01
285.5 .8364e+01
286.5 .8684e+01
287.5 .9055e+01
288.5 .9362e+01
289.5 .9817e+01
290.5 .1044e+02
291.5 .1104e+02
292.5 .1159e+02
293.5 .1213e+02
294.5 .1264e+02
295.5 .1319e+02
296.5 .1368e+02
297.5 .1421e+02
298.5 .1462e+02
299.5 .1511e+02
300.5 .1551e+02
301.5 .1596e+02
302.5 .1644e+02
303.5 .1707e+02
304.5 .1768e+02
305.5 .1826e+02
306.5 .1884e+02
307.5 .1948e+02
308.5 .2010e+02
309.5 .2034e+02
310.0 .2054e+02
310.4 .2074e+02
310.8 .2097e+02
311.2 .2126e+02
311.6 .2156e+02
312.0 .2184e+02
312.4 .2210e+02
312.8 .2236e+02
313.2 .2265e+02
313.6 .2292e+02
314.0 .2320e+02
314.4 .2349e+02
314.8 .2375e+02
315.2 .2403e+02
315.6 .2434e+02
316.0 .2461e+02
316.4 .2484e+02
316.8 .2509e+02
317.2 .2539e+02
317.6 .2572e+02
318.0 .2604e+02
318.4 .2631e+02
318.8 .2657e+02
319.2 .2688e+02
319.6 .2718e+02
320.0 .2746e+02
320.4 .2778e+02
320.8 .2811e+02
321.2 .2845e+02
321.6 .2875e+02
322.0 .2902e+02
322.4 .2933e+02
322.8 .2964e+02
323.2 .2989e+02
323.6 .3014e+02
324.0 .3038e+02
324.4 .3063e+02
324.8 .3089e+02
325.2 .3115e+02
325.6 .3142e+02
326.0 .3176e+02
326.4 .3218e+02
326.8 .3262e+02
327.2 .3307e+02
327.6 .3349e+02
328.0 .3387e+02
328.4 .3424e+02
328.8 .3460e+02
329.2 .3498e+02
329.6 .3540e+02
330.0 .3586e+02
330.4 .3597e+02
330.5 .3698e+02
331.5 .3795e+02
332.5 .3887e+02
333.5 .3977e+02
334.5 .4071e+02
335.5 .4169e+02
336.5 .4246e+02
337.5 .4332e+02
338.5 .4424e+02
339.5 .4517e+02
340.5 .4617e+02
341.5 .4710e+02
342.5 .4810e+02
343.5 .4908e+02
344.5 .4980e+02
345.5 .5077e+02
346.5 .5169e+02
347.5 .5259e+02
348.5 .5354e+02
349.5 .5440e+02
350.5 .5552e+02
351.5 .5651e+02
352.5 .5738e+02
353.5 .5850e+02
354.5 .5963e+02
355.5 .6069e+02
356.5 .6163e+02
357.5 .6252e+02
358.5 .6314e+02
359.5 .6428e+02
360.5 .6526e+02
361.5 .6615e+02
362.5 .6733e+02
363.5 .6829e+02
364.5 .6930e+02
365.5 .7056e+02
366.5 .7181e+02
367.5 .7303e+02
368.5 .7412e+02
369.5 .7545e+02
370.5 .7652e+02
371.5 .7783e+02
372.5 .7889e+02
373.5 .7973e+02
374.5 .8061e+02
375.5 .8175e+02
376.5 .8285e+02
377.5 .8414e+02
378.5 .8549e+02
379.5 .8649e+02
380.5 .8777e+02
381.5 .8887e+02
382.5 .8960e+02
383.5 .9029e+02
384.5 .9131e+02
385.5 .9227e+02
386.5 .9334e+02
387.5 .9430e+02
388.5 .9522e+02
389.5 .9644e+02
390.5 .9767e+02
391.5 .9906e+02
392.5 .1000e+03
393.5 .1005e+03
394.5 .1016e+03
395.5 .1030e+03
396.5 .1036e+03
397.5 .1047e+03
398.5 .1062e+03
399.5 .1079e+03
400.5 .1095e+03
401.5 .1113e+03
402.5 .1131e+03
403.5 .1148e+03
404.5 .1164e+03
405.5 .1180e+03
406.5 .1197e+03
407.5 .1212e+03
408.5 .1230e+03
409.5 .1247e+03
410.5 .1263e+03
411.5 .1281e+03
412.5 .1299e+03
413.5 .1316e+03
414.5 .1334e+03
415.5 .1351e+03
416.5 .1369e+03
417.5 .1386e+03
418.5 .1403e+03
419.5 .1420e+03
420.5 .1438e+03
421.5 .1456e+03
422.5 .1471e+03
423.5 .1488e+03
424.5 .1506e+03
425.5 .1523e+03
426.5 .1540e+03
427.5 .1556e+03
428.5 .1572e+03
429.5 .1587e+03
430.5 .1598e+03
431.5 .1615e+03
432.5 .1631e+03
433.5 .1649e+03
434.5 .1665e+03
435.5 .1683e+03
436.5 .1702e+03
437.5 .1720e+03
438.5 .1736e+03
439.5 .1754e+03
440.5 .1771e+03
441.5 .1790e+03
442.5 .1810e+03
443.5 .1829e+03
444.5 .1849e+03
445.5 .1867e+03
446.5 .1886e+03
447.5 .1907e+03
448.5 .1927e+03
449.5 .1947e+03
450.5 .1968e+03
451.5 .1990e+03
452.5 .2009e+03
453.5 .2029e+03
454.5 .2049e+03
455.5 .2069e+03
456.5 .2090e+03
457.5 .2111e+03
458.5 .2130e+03
459.5 .2151e+03
460.5 .2171e+03
461.5 .2192e+03
462.5 .2213e+03
463.5 .2233e+03
464.5 .2253e+03
465.5 .2273e+03
466.5 .2293e+03
467.5 .2313e+03
468.5 .2333e+03
469.5 .2353e+03
470.5 .2371e+03
471.5 .2392e+03
472.5 .2412e+03
473.5 .2432e+03
474.5 .2452e+03
475.4 .2473e+03
476.5 .2492e+03
477.5 .2513e+03
478.5 .2533e+03
479.5 .2554e+03
480.5 .2574e+03
481.5 .2595e+03
482.5 .2615e+03
483.5 .2636e+03
484.5 .2655e+03
485.5 .2674e+03
486.5 .2690e+03
487.5 .2708e+03
488.5 .2727e+03
489.5 .2747e+03
490.5 .2767e+03
491.5 .2786e+03
492.5 .2805e+03
493.5 .2824e+03
494.5 .2845e+03
495.5 .2864e+03
496.5 .2884e+03
497.5 .2904e+03
498.5 .2923e+03
499.5 .2943e+03
500.5 .2961e+03
501.5 .2979e+03
502.5 .2998e+03
503.5 .3018e+03
504.5 .3036e+03
505.5 .3056e+03
506.5 .3076e+03
507.5 .3095e+03
508.5 .3114e+03
509.8 .3134e+03
510.5 .3153e+03
511.5 .3173e+03
512.5 .3192e+03
513.5 .3210e+03
514.5 .3229e+03
515.5 .3248e+03
516.5 .3265e+03
517.5 .3282e+03
518.5 .3299e+03
519.5 .3317e+03
520.5 .3335e+03
521.5 .3354e+03
522.5 .3373e+03
523.5 .3392e+03
524.5 .3411e+03
525.5 .3431e+03
526.5 .3447e+03
527.5 .3466e+03
528.5 .3485e+03
529.5 .3504e+03
530.5 .3523e+03
531.5 .3543e+03
532.5 .3561e+03
533.5 .3580e+03
534.5 .3599e+03
535.5 .3619e+03
536.5 .3637e+03
537.5 .3656e+03
538.5 .3675e+03
539.5 .3694e+03
540.5 .3711e+03
541.5 .3730e+03
542.5 .3748e+03
543.5 .3767e+03
544.5 .3786e+03
545.5 .3805e+03
546.5 .3824e+03
547.5 .3842e+03
548.5 .3861e+03
549.5 .3880e+03
550.5 .3898e+03
551.5 .3917e+03
552.5 .3936e+03
553.5 .3954e+03
554.5 .3973e+03
555.5 .3992e+03
556.5 .4011e+03
557.5 .4029e+03
558.5 .4047e+03
559.5 .4065e+03
560.5 .4084e+03
561.5 .4102e+03
562.5 .4120e+03
563.5 .4139e+03
564.5 .4158e+03
565.5 .4176e+03
566.5 .4194e+03
567.5 .4213e+03
568.5 .4231e+03
569.5 .4250e+03
570.5 .4267e+03
571.5 .4286e+03
572.5 .4305e+03
573.5 .4323e+03
574.5 .4342e+03
575.5 .4360e+03
576.5 .4379e+03
577.5 .4397e+03
578.5 .4415e+03
579.5 .4435e+03
580.5 .4452e+03
581.5 .4471e+03
582.5 .4489e+03
583.5 .4508e+03
584.5 .4526e+03
585.5 .4544e+03
586.5 .4563e+03
587.5 .4581e+03
588.5 .4599e+03
589.5 .4615e+03
590.5 .4633e+03
591.5 .4651e+03
592.5 .4669e+03
593.5 .4687e+03
594.5 .4705e+03
595.5 .4723e+03
596.5 .4741e+03
597.5 .4758e+03
598.5 .4776e+03
599.5 .4794e+03
600.5 .4811e+03
601.5 .4829e+03
602.5 .4846e+03
603.5 .4864e+03
604.5 .4882e+03
605.5 .4899e+03
606.5 .4917e+03
607.5 .4935e+03
608.5 .4952e+03
609.5 .4969e+03
610.5 .4987e+03
611.5 .5004e+03
612.5 .5021e+03
613.5 .5038e+03
614.5 .5055e+03
615.5 .5072e+03
616.5 .5088e+03
617.5 .5105e+03
618.5 .5123e+03
619.5 .5140e+03
620.5 .5157e+03
621.5 .5174e+03
622.5 .5191e+03
623.5 .5208e+03
624.5 .5224e+03
625.5 .5241e+03
626.5 .5258e+03
627.5 .5275e+03
628.5 .5292e+03
629.5 .5317e+03
631.0 .5350e+03
633.0 .5353e+03
635.0 .5416e+03
637.0 .5449e+03
639.0 .5482e+03
641.0 .5514e+03
643.0 .5547e+03
645.0 .5579e+03
647.0 .5612e+03
649.0 .5643e+03
651.0 .5675e+03
653.0 .5707e+03
655.0 .5738e+03
657.0 .5765e+03
659.0 .5796e+03
661.0 .5828e+03
663.0 .5859e+03
665.0 .5890e+03
667.0 .5921e+03
669.0 .5952e+03
671.0 .5982e+03
673.0 .6013e+03
675.0 .6043e+03
677.0 .6073e+03
679.0 .6103e+03
681.0 .6133e+03
683.0 .6163e+03
685.0 .6192e+03
687.0 .6221e+03
689.0 .6250e+03
691.0 .6279e+03
693.0 .6308e+03
695.0 .6337e+03
697.0 .6365e+03
699.0 .6394e+03
701.0 .6422e+03
703.0 .6450e+03
705.0 .6478e+03
707.0 .6506e+03
709.0 .6534e+03
711.0 .6561e+03
713.0 .6589e+03
715.0 .6616e+03
717.0 .6643e+03
719.0 .6670e+03
721.0 .6697e+03
723.0 .6724e+03
725.0 .6751e+03
727.0 .6778e+03
729.0 .6804e+03
731.0 .6830e+03
733.0 .6857e+03
735.0 .6883e+03
737.0 .6909e+03
739.0 .6935e+03
741.0 .6960e+03
743.0 .6986e+03
745.0 .7011e+03
747.0 .7037e+03
749.0 .7062e+03
751.0 .7088e+03
753.0 .7113e+03
755.0 .7138e+03
757.0 .7163e+03
759.0 .7188e+03
761.0 .7213e+03
763.0 .7237e+03
765.0 .7262e+03
767.0 .7286e+03
769.0 .7310e+03
771.0 .7334e+03
773.0 .7358e+03
775.0 .7382e+03
777.0 .7406e+03
779.0 .7430e+03
781.0 .7453e+03
783.0 .7477e+03
785.0 .7500e+03
787.0 .7524e+03
789.0 .7548e+03
791.0 .7571e+03
793.0 .7594e+03
795.0 .7616e+03
797.0 .7639e+03
799.0 .7662e+03
801.0 .7685e+03
803.0 .7708e+03
805.0 .7730e+03
807.0 .7752e+03
809.0 .7774e+03
811.0 .7797e+03
813.0 .7819e+03
815.0 .7841e+03
817.0 .7863e+03
819.0 .7884e+03
821.0 .7906e+03
823.0 .7928e+03
825.0 .7949e+03
827.0 .7971e+03
829.0 .7992e+03
831.0 .8014e+03
833.0 .8034e+03
835.0 .8055e+03
837.0 .8076e+03
839.0 .8097e+03
841.0 .8118e+03
843.0 .8139e+03
845.0 .8159e+03
847.0 .8180e+03
849.0 .8199e+03
851.0 .8219e+03
853.0 .8239e+03
855.0 .8256e+03
857.0 .8276e+03
859.0 .8296e+03
861.0 .8316e+03
863.0 .8336e+03
865.0 .8356e+03
867.0 .8373e+03
869.0 .8393e+03
871.0 .8412e+03
873.0 .8432e+03
875.0 .8451e+03
877.0 .8471e+03
879.0 .8490e+03
881.0 .8509e+03
883.0 .8528e+03
885.0 .8548e+03
887.0 .8567e+03
889.0 .8586e+03
891.0 .8605e+03
893.0 .8623e+03
895.0 .8642e+03
897.0 .8661e+03
899.0 .8679e+03
901.0 .8697e+03
903.0 .8715e+03
905.0 .8733e+03
907.0 .8751e+03
909.0 .8768e+03
911.0 .8785e+03
913.0 .8803e+03
915.0 .8820e+03
917.0 .8837e+03
919.0 .8855e+03
921.0 .8871e+03
923.0 .8888e+03
925.0 .8904e+03
927.0 .8921e+03
929.0 .8937e+03
931.0 .8954e+03
933.0 .8971e+03
935.0 .8987e+03
937.0 .9003e+03
939.0 .9019e+03
941.0 .9035e+03
943.0 .9051e+03
945.0 .9067e+03
947.0 .9083e+03
949.0 .9098e+03
951.0 .9114e+03
953.0 .9129e+03
955.0 .9144e+03
957.0 .9160e+03
959.0 .9175e+03
961.0 .9191e+03
963.0 .9206e+03
965.0 .9221e+03
967.0 .9236e+03
969.0 .9252e+03
971.0 .9267e+03
973.0 .9282e+03
975.0 .9297e+03
977.0 .9313e+03
979.0 .9328e+03
981.0 .9343e+03
983.0 .9359e+03
985.0 .9374e+03
987.0 .9389e+03
989.0 .9405e+03
991.0 .9420e+03
993.0 .9435e+03
995.0 .9450e+03
997.0 .9465e+03
999.0 .9491e+03
1002.5 .9528e+03
1007.5 .9565e+03
1012.5 .9602e+03
1017.5 .9638e+03
1022.5 .9673e+03
1027.5 .9708e+03
1032.5 .9743e+03
1037.5 .9777e+03
1042.5 .9811e+03
1047.5 .9846e+03
1052.5 .9879e+03
1057.5 .9911e+03
1062.5 .9943e+03
1067.5 .9975e+03
1072.5 .1001e+04
1077.5 .1004e+04
1082.5 .1007e+04
1087.5 .1010e+04
1092.5 .1013e+04
1097.5 .1016e+04
1102.5 .1019e+04
1107.5 .1022e+04
1112.5 .1025e+04
1117.5 .1028e+04
1122.5 .1031e+04
1127.5 .1034e+04
1132.5 .1037e+04
1137.5 .1039e+04
1142.5 .1042e+04
1147.5 .1045e+04
1152.0 .1048e+04
1157.5 .1051e+04
1162.5 .1053e+04
1167.5 .1056e+04
1172.5 .1059e+04
1177.5 .1061e+04
1182.5 .1064e+04
1187.5 .1066e+04
1192.5 .1069e+04
1197.5 .1071e+04
1202.5 .1074e+04
1207.5 .1076e+04
1212.5 .1079e+04
1217.5 .1081e+04
1222.5 .1084e+04
1227.5 .1086e+04
1232.5 .1089e+04
1237.5 .1091e+04
1242.5 .1093e+04
1247.5 .1096e+04
1252.5 .1098e+04
1257.5 .1100e+04
1262.5 .1103e+04
1267.5 .1105e+04
1272.5 .1107e+04
1277.5 .1109e+04
1282.5 .1111e+04
1287.5 .1114e+04
1292.5 .1116e+04
1297.5 .1118e+04
1302.5 .1120e+04
1307.5 .1122e+04
1312.5 .1124e+04
1317.5 .1126e+04
1322.5 .1129e+04
1327.5 .1131e+04
1332.5 .1133e+04
1337.5 .1135e+04
1342.5 .1137e+04
1347.5 .1139e+04
1352.5 .1140e+04
1357.5 .1142e+04
1362.5 .1144e+04
1367.5 .1146e+04
1372.5 .1148e+04
1377.5 .1150e+04
1382.5 .1152e+04
1387.5 .1153e+04
1392.5 .1155e+04
1397.5 .1157e+04
1402.5 .1159e+04
1407.5 .1161e+04
1412.5 .1162e+04
1417.5 .1164e+04
1422.5 .1166e+04
1427.5 .1167e+04
1432.5 .1169e+04
1437.5 .1171e+04
1442.5 .1172e+04
1447.5 .1174e+04
1452.5 .1176e+04
1457.5 .1177e+04
1462.5 .1179e+04
1467.5 .1180e+04
1472.5 .1182e+04
1477.5 .1183e+04
1482.5 .1185e+04
1487.5 .1186e+04
1492.5 .1188e+04
1497.5 .1189e+04
1502.5 .1191e+04
1507.5 .1192e+04
1512.5 .1194e+04
1517.5 .1195e+04
1522.5 .1197e+04
1527.5 .1198e+04
1532.5 .1200e+04
1537.5 .1201e+04
1542.5 .1202e+04
1547.5 .1204e+04
1552.5 .1205e+04
1557.5 .1206e+04
1562.5 .1208e+04
1567.5 .1209e+04
1572.5 .1210e+04
1577.5 .1212e+04
1582.5 .1213e+04
1587.5 .1214e+04
1592.5 .1215e+04
1597.5 .1217e+04
1602.5 .1218e+04
1607.5 .1219e+04
1612.5 .1220e+04
1617.5 .1222e+04
1622.5 .1223e+04
1627.5 .1224e+04
1632.5 .1225e+04
1637.5 .1226e+04
1642.5 .1228e+04
1647.5 .1229e+04
1652.5 .1230e+04
1657.5 .1231e+04
1662.5 .1232e+04
1667.5 .1233e+04
1672.5 .1234e+04
1677.5 .1236e+04
1682.5 .1237e+04
1687.5 .1238e+04
1692.5 .1239e+04
1697.5 .1240e+04
1702.5 .1241e+04
1707.5 .1242e+04
1712.5 .1243e+04
1717.5 .1244e+04
1722.5 .1245e+04
1727.5 .1246e+04
1732.5 .1247e+04
1737.5 .1248e+04
1742.5 .1249e+04
1747.5 .1250e+04
1752.5 .1251e+04
1757.5 .1252e+04
1762.5 .1253e+04
1767.5 .1254e+04
1772.5 .1255e+04
1777.5 .1255e+04
1782.5 .1256e+04
1787.5 .1257e+04
1792.5 .1258e+04
1797.5 .1259e+04
1802.5 .1260e+04
1807.5 .1261e+04
1812.5 .1261e+04
1817.5 .1262e+04
1822.5 .1263e+04
1827.5 .1264e+04
1832.5 .1264e+04
1837.5 .1265e+04
1842.5 .1266e+04
1847.5 .1267e+04
1852.5 .1267e+04
1857.5 .1268e+04
1862.5 .1269e+04
1867.5 .1270e+04
1872.5 .1270e+04
1877.5 .1271e+04
1882.5 .1272e+04
1887.5 .1272e+04
1892.5 .1273e+04
1897.5 .1274e+04
1902.5 .1274e+04
1907.5 .1275e+04
1912.5 .1276e+04
1917.5 .1276e+04
1922.5 .1277e+04
1927.5 .1278e+04
1932.5 .1278e+04
1937.5 .1279e+04
1942.5 .1280e+04
1947.5 .1280e+04
1952.5 .1281e+04
1957.5 .1282e+04
1962.5 .1282e+04
1967.5 .1283e+04
1972.5 .1284e+04
1977.5 .1284e+04
1982.5 .1285e+04
1987.5 .1285e+04
1992.5 .1286e+04
1997.5 .1287e+04
2002.5 .1287e+04
2012.5 .1288e+04
2022.5 .1289e+04
2032.5 .1291e+04
2042.5 .1292e+04
2052.5 .1293e+04
2062.5 .1294e+04
2077.5 .1295e+04
2092.5 .1297e+04
2107.5 .1298e+04
2122.5 .1299e+04
2137.5 .1301e+04
2152.5 .1302e+04
2167.5 .1303e+04
2182.5 .1304e+04
2197.5 .1305e+04
2212.5 .1307e+04
2227.5 .1308e+04
2247.5 .1309e+04
2262.5 .1310e+04
2282.5 .1311e+04
2302.5 .1313e+04
2322.5 .1314e+04
2342.5 .1315e+04
2362.5 .1316e+04
2382.5 .1317e+04
2402.5 .1319e+04
2422.5 .1320e+04
2442.5 .1321e+04
2467.5 .1322e+04
2492.5 .1323e+04
2517.5 .1325e+04
2542.5 .1326e+04
2567.5 .1327e+04
2592.5 .1328e+04
2617.5 .1329e+04
2642.5 .1330e+04
2672.5 .1331e+04
2702.0 .1332e+04
2732.5 .1333e+04
2762.2 .1334e+04
2797.5 .1335e+04
2832.5 .1336e+04
2867.5 .1338e+04
2907.5 .1339e+04
2947.5 .1340e+04
2987.5 .1341e+04
3025.0 .1342e+04
3075.0 .1343e+04
3125.0 .1344e+04
3175.0 .1345e+04
3235.0 .1346e+04
3295.0 .1347e+04
3355.0 .1348e+04
3425.0 .1349e+04
3495.0 .1350e+04
3575.0 .1352e+04
3665.0 .1353e+04
3755.0 .1354e+04
3855.0 .1355e+04
3965.0 .1356e+04
4085.0 .1357e+04
4225.0 .1358e+04
4385.0 .1359e+04
4575.0 .1360e+04
4805.0 .1361e+04
5085.0 .1362e+04
5445.0 .1363e+04
5925.0 .1364e+04
6615.0 .1365e+04
7785.0 .1366e+04
10075.0 .1367e+04
