
  Data: Imaginary indices of refraction for water and ice in
  the 0.67 to 2.5 micron range. 

  Reference: L. Kou, D. Labrie, and P. Chylek, Refractive indices of 
  water and ice in the 0.65 to 2.5 micron range, Applied Optics,
  vol. 32, pgs. 3531-3540, 1993.

  Format: wavenumber (cm-1), wavelength (microns), imaginary index
  of refraction, error (percent)
  147 values from  4000 to  6920 cm-1 (2x,f6.0,1x,f6.4,3(4x,e10.3,1x,f4.1))
  at 22 and -8 C for water, and at -25 C for ice.
  186 values from  6940 to 10640 cm-1 (2x,f6.0,1x,f6.4,2(4x,e10.3,1x,f4.1))
  at 22 and -8 C for water.
  218 values from 10660 to 15000 cm-1 (2x,f6.0,1x,f6.4,1(4x,e10.3,1x,f4.1))
  at 22 C for water.


 		    Water              Water              ICE 
		    22 C               -8 C               -25 C
   cm-1  microns    imaginary  error   imaginary  error   imaginary  error   

   4000. 2.5000     2.000E-03  3.6     1.760E-03  4.3     8.040E-04  6.0
   4020. 2.4876     1.870E-03  3.3     1.680E-03  4.1     7.720E-04  4.7
   4040. 2.4752     1.710E-03  3.9     1.560E-03  4.3     7.440E-04  3.8
   4060. 2.4631     1.560E-03  3.1     1.420E-03  3.8     7.200E-04  3.8
   4080. 2.4510     1.400E-03  2.0     1.250E-03  3.0     6.910E-04  3.0
   4100. 2.4390     1.270E-03  1.4     1.170E-03  2.3     6.610E-04  2.1
   4120. 2.4272     1.170E-03  1.4     1.080E-03  2.2     6.400E-04  2.0
   4140. 2.4155     1.070E-03  1.4     9.940E-04  1.8     6.210E-04  1.9
   4160. 2.4038     9.840E-04  1.2     9.200E-04  1.5     5.990E-04  1.6
   4180. 2.3923     9.050E-04  1.0     8.500E-04  1.5     5.770E-04  1.5
   4200. 2.3810     8.350E-04   .8     7.810E-04  1.3     5.540E-04  1.3
   4220. 2.3697     7.700E-04   .9     7.310E-04  1.2     5.270E-04  1.4
   4240. 2.3585     7.110E-04   .9     6.730E-04  1.1     4.970E-04  1.5
   4260. 2.3474     6.750E-04  1.0     6.190E-04  1.2     4.610E-04  1.7
   4280. 2.3364     6.070E-04   .9     5.700E-04  1.3     4.200E-04  1.8
   4300. 2.3256     5.640E-04  1.0     5.310E-04  1.3     3.810E-04  2.1
   4320. 2.3148     5.240E-04   .9     4.900E-04  1.3     3.400E-04  2.3
   4340. 2.3041     4.890E-04   .8     4.550E-04  1.5     3.030E-04  2.7
   4360. 2.2936     4.600E-04  1.0     4.260E-04  1.4     2.720E-04  3.3
   4380. 2.2831     4.340E-04  1.1     4.010E-04  1.4     2.460E-04  3.6
   4400. 2.2727     4.120E-04  1.1     3.800E-04  1.7     2.280E-04  3.9
   4420. 2.2624     3.950E-04  1.0     3.630E-04  1.3     2.160E-04  4.1
   4440. 2.2523     3.800E-04  1.2     3.480E-04  2.1     2.100E-04  4.3
   4460. 2.2422     3.700E-04  1.1     3.450E-04  1.7     2.120E-04  4.3
   4480. 2.2321     3.620E-04  1.2     3.430E-04  1.7     2.170E-04  4.3
   4500. 2.2222     3.560E-04  1.1     3.370E-04  1.7     2.270E-04  4.2
   4520. 2.2124     3.530E-04  1.2     3.350E-04  1.6     2.380E-04  3.9
   4540. 2.2026     3.530E-04  1.3     3.410E-04  1.8     2.540E-04  3.7
   4560. 2.1930     3.540E-04  1.3     3.430E-04  1.7     2.710E-04  3.4
   4580. 2.1834     3.590E-04  1.0     3.520E-04  1.3     2.930E-04  3.1
   4600. 2.1739     3.640E-04  1.0     3.610E-04  1.5     3.170E-04  3.0
   4620. 2.1645     3.730E-04  1.0     3.720E-04  1.2     3.480E-04  2.7
   4640. 2.1552     3.830E-04   .9     3.890E-04  1.6     3.830E-04  2.4
   4660. 2.1459     3.960E-04  1.0     4.080E-04  1.4     4.280E-04  2.2
   4680. 2.1368     4.130E-04  1.0     4.310E-04  1.4     4.850E-04  2.0
   4700. 2.1277     4.320E-04  1.0     4.580E-04  1.2     5.500E-04  1.8
   4720. 2.1186     4.540E-04  1.1     4.870E-04  1.1     6.280E-04  1.6
   4740. 2.1097     4.800E-04  1.2     5.230E-04  1.4     7.190E-04  1.6
   4760. 2.1008     5.090E-04  1.1     5.610E-04  1.3     8.200E-04  1.5
   4780. 2.0921     5.430E-04  1.3     6.030E-04  1.4     9.300E-04  1.2
   4800. 2.0833     5.800E-04  1.3     6.470E-04  1.4     1.020E-03  3.3
   4820. 2.0747     6.200E-04  1.5     7.000E-04  1.5     1.130E-03  3.0
   4840. 2.0661     6.650E-04  1.6     7.500E-04  1.7     1.230E-03  2.9
   4860. 2.0576     7.200E-04  2.0     8.250E-04  1.9     1.320E-03  2.7
   4880. 2.0492     7.770E-04  1.8     8.910E-04  1.8     1.400E-03  2.5
   4900. 2.0408     8.310E-04  2.0     9.540E-04  2.0     1.450E-03  2.1
   4920. 2.0325     8.960E-04  1.8     1.030E-03  3.1     1.520E-03  2.2
   4940. 2.0243     9.690E-04  1.7     1.110E-03  3.1     1.550E-03  2.1
   4960. 2.0161     1.050E-03  1.5     1.190E-03  2.9     1.590E-03  2.1
   4980. 2.0080     1.130E-03  2.5     1.280E-03  2.8     1.630E-03  2.2
   5000. 2.0000     1.230E-03  2.9     1.370E-03  2.7     1.640E-03  2.2
   5020. 1.9920     1.330E-03  2.5     1.460E-03  2.4     1.640E-03  2.0
   5040. 1.9841     1.440E-03  2.7     1.560E-03  2.5     1.630E-03  2.4
   5060. 1.9763     1.560E-03  2.5     1.680E-03  2.3     1.590E-03  2.4
   5080. 1.9685     1.680E-03  2.0     1.770E-03  1.8     1.520E-03  2.2
   5100. 1.9608     1.800E-03  2.1     1.870E-03  1.9     1.420E-03  2.5
   5120. 1.9531     1.920E-03  2.0     1.950E-03  1.8     1.310E-03  2.7
   5140. 1.9455     2.020E-03  2.1     2.000E-03  2.0     1.160E-03  3.6
   5160. 1.9380     2.080E-03  2.3     2.000E-03  2.3     9.910E-04  4.7
   5180. 1.9305     2.100E-03  2.2     1.950E-03  2.3     8.380E-04  5.4
   5200. 1.9231     2.060E-03  2.3     1.820E-03  2.7     6.820E-04  7.0
   5220. 1.9157     1.960E-03  2.5     1.660E-03  3.3     5.530E-04  9.2
   5240. 1.9084     1.780E-03  2.7     1.440E-03  3.8     4.840E-04 11.0
   5260. 1.9011     1.490E-03  2.9     1.170E-03  4.3     4.000E-04 14.7
   5280. 1.8939     1.100E-03  2.4     8.830E-04  3.2     2.980E-04 10.4
   5300. 1.8868     7.310E-04  2.7     5.910E-04  3.5     2.330E-04  9.9
   5320. 1.8797     4.750E-04  2.8     3.900E-04  3.5     1.870E-04  9.1
   5340. 1.8727     3.210E-04  4.0     2.690E-04  4.9     1.560E-04 10.6
   5360. 1.8657     2.340E-04  3.6     1.980E-04  4.7     1.420E-04 10.4
   5380. 1.8587     1.890E-04  1.9     1.650E-04  2.6     1.330E-04 11.0
   5400. 1.8519     1.640E-04  1.4     1.450E-04  1.9     1.260E-04 11.9
   5420. 1.8450     1.480E-04  1.4     1.340E-04  1.9     1.260E-04 12.3
   5440. 1.8382     1.420E-04  1.3     1.290E-04  1.7     1.230E-04 13.0
   5460. 1.8315     1.370E-04  1.1     1.260E-04  1.3     1.230E-04 12.1
   5480. 1.8248     1.340E-04  1.2     1.250E-04  1.4     1.250E-04 10.9
   5500. 1.8182     1.330E-04  1.4     1.240E-04  1.6     1.260E-04 11.4
   5520. 1.8116     1.320E-04  1.5     1.250E-04  1.6     1.280E-04 10.2
   5540. 1.8051     1.330E-04  1.2     1.260E-04  1.3     1.300E-04  9.8
   5560. 1.7986     1.310E-04  1.2     1.260E-04  1.2     1.310E-04 10.0
   5580. 1.7921     1.310E-04  1.4     1.270E-04  1.5     1.330E-04  9.9
   5600. 1.7857     1.300E-04  1.3     1.270E-04  1.3     1.350E-04  9.3
   5620. 1.7794     1.270E-04  1.5     1.260E-04  1.6     1.370E-04  8.3
   5640. 1.7731     1.230E-04  1.2     1.230E-04  1.2     1.380E-04  8.1
   5660. 1.7668     1.180E-04  1.0     1.190E-04   .8     1.390E-04  8.2
   5680. 1.7606     1.110E-04  1.4     1.140E-04  1.4     1.400E-04  8.0
   5700. 1.7544     1.060E-04  1.1     1.090E-04  1.1     1.420E-04  7.6
   5720. 1.7483     1.010E-04  1.2     1.050E-04  1.2     1.450E-04  7.0
   5740. 1.7422     9.590E-05  1.0     1.010E-04  1.0     1.480E-04  7.0
   5760. 1.7361     9.190E-05  1.1     9.740E-05  1.1     1.490E-04  7.2
   5780. 1.7301     8.870E-05  1.3     9.500E-05  1.3     1.520E-04  6.4
   5800. 1.7241     8.610E-05  1.1     9.300E-05  1.2     1.540E-04  6.5
   5820. 1.7182     8.390E-05  1.0     9.150E-05  1.1     1.590E-04  5.9
   5840. 1.7123     8.190E-05  1.3     9.010E-05  1.5     1.630E-04  5.4
   5860. 1.7065     8.040E-05  1.1     8.940E-05  1.4     1.670E-04  5.5
   5880. 1.7007     7.970E-05  1.2     8.940E-05  1.4     1.720E-04  5.3
   5900. 1.6949     7.890E-05  1.3     8.920E-05  1.5     1.780E-04  4.7
   5920. 1.6892     7.840E-05  1.0     8.930E-05  1.5     1.820E-04  4.8
   5940. 1.6835     7.820E-05  1.1     8.970E-05  1.5     1.870E-04  4.7
   5960. 1.6779     7.790E-05  1.2     9.000E-05  1.6     1.920E-04  4.1
   5980. 1.6722     7.820E-05  1.3     9.080E-05  1.7     1.970E-04  4.2
   6000. 1.6667     7.850E-05  1.4     9.160E-05  1.7     2.050E-04  4.2
   6020. 1.6611     7.910E-05  1.1     9.290E-05  1.7     2.110E-04  3.5
   6010. 1.6556     7.970E-05  1.4     9.400E-05  1.9     2.160E-04  3.5
   6060. 1.6502     8.090E-05  1.1     9.560E-05  1.7     2.230E-04  3.4
   6080. 1.6447     8.200E-05  1.2     9.720E-05  1.7     2.290E-04  3.4
   6100. 1.6393     8.290E-05  1.3     9.860E-05  1.8     2.350E-04  3.5
   6120. 1.6340     8.440E-05  1.2     1.000E-04  1.9     2.400E-04  3.2
   6140. 1.6287     8.630E-05  1.4     1.030E-04  1.9     2.440E-04  3.3
   6160. 1.6234     8.790E-05  1.2     1.050E-04  1.9     2.470E-04  3.2
   6180. 1.6181     9.000E-05  1.1     1.070E-04  1.7     2.490E-04  3.2
   6200. 1.6129     9.230E-05  1.2     1.110E-04  1.9     2.530E-04  2.8
   6220. 1.6077     9.440E-05  1.5     1.130E-04  1.9     2.590E-04  2.9
   6240. 1.6026     9.700E-05  1.0     1.170E-04  1.8     2.660E-04  3.1
   6260. 1.5974     1.000E-04  1.2     1.200E-04  1.8     2.740E-04  2.8
   6280. 1.5924     1.030E-04  1.0     1.240E-04  1.9     2.840E-04  2.8
   6300. 1.5873     1.070E-04  1.2     1.290E-04  1.9     2.970E-04  2.7
   6320. 1.5823     1.110E-04  1.2     1.340E-04  1.9     3.110E-04  2.7
   6340. 1.5773     1.150E-04  1.4     1.390E-04  2.0     3.240E-04  2.5
   6360. 1.5723     1.190E-04  1.0     1.440E-04  2.0     3.420E-04  2.6
   6380. 1.5674     1.240E-04  1.6     1.460E-04  4.1     3.580E-04  2.3
   6400. 1.5625     1.300E-04  1.2     1.540E-04  3.8     3.750E-04  2.2
   6420. 1.5576     1.360E-04  1.4     1.630E-04  4.4     3.920E-04  2.4
   6440. 1.5528     1.440E-04  1.9     1.710E-04  3.8     4.080E-04  2.1
   6460. 1.5480     1.500E-04  1.9     1.810E-04  2.8     4.250E-04  1.8
   6480. 1.5432     1.570E-04  2.3     1.880E-04  3.0     4.370E-04  1.8
   6500. 1.5385     1.690E-04  2.2     2.000E-04  3.7     4.510E-04  2.0
   6520. 1.5337     1.780E-04  2.2     2.090E-04  3.1     4.620E-04  1.8
   6540. 1.5291     1.870E-04  3.5     2.230E-04  3.4     4.750E-04  1.9
   6560. 1.5244     1.950E-04  2.9     2.350E-04  2.6     4.870E-04  1.6
   6580. 1.5198     2.060E-04  2.8     2.480E-04  2.4     4.980E-04  1.5
   6600. 1.5152     2.180E-04  3.2     2.610E-04  2.7     5.090E-04  1.7
   6620. 1.5106     2.310E-04  3.0     2.750E-04  2.6     5.170E-04  1.6
   6640. 1.5060     2.450E-04  2.4     2.910E-04  2.1     5.270E-04  1.5
   6660. 1.5015     2.580E-04  2.5     3.040E-04  2.2     5.330E-04  1.5
   6680. 1.4970     2.730E-04  2.4     3.200E-04  2.2     5.380E-04  1.5
   6700. 1.4925     2.860E-04  2.4     3.330E-04  2.2     5.340E-04  1.6
   6720. 1.4881     3.050E-04  2.5     3.500E-04  2.3     5.270E-04  1.7
   6740. 1.4837     3.180E-04  2.0     3.610E-04  1.8     5.030E-04  1.6
   6760. 1.4793     3.320E-04  1.9     3.740E-04  1.8     4.710E-04  1.6
   6780. 1.4749     3.480E-04  2.2     3.850E-04  2.1     4.330E-04  2.0
   6800. 1.4706     3.580E-04  1.7     3.910E-04  1.6     3.860E-04  1.9
   6820. 1.4663     3.680E-04  2.2     3.970E-04  2.0     3.420E-04  2.6
   6840. 1.4620     3.770E-04  1.7     3.990E-04  1.7     2.990E-04  2.6
   6860. 1.4577     3.790E-04  1.9     3.950E-04  1.9     2.580E-04  3.1
   6880. 1.4535     3.790E-04  1.9     3.870E-04  1.9     2.200E-04  3.5
   6900. 1.4493     3.770E-04  2.0     3.800E-04  2.0     1.890E-04  4.3
   6920. 1.4451     3.740E-04  2.0     3.670E-04  2.1     1.600E-04  5.1
   6940. 1.4409     3.690E-04  2.0     3.530E-04  2.2
   6960. 1.4368     3.660E-04  1.9     3.390E-04  2.1
   6980. 1.4327     3.540E-04  2.3     3.180E-04  2.6
   7000. 1.4286     3.440E-04  1.9     2.990E-04  2.4
   7020. 1.4245     3.300E-04  2.3     2.790E-04  2.9
   7040. 1.4205     3.130E-04  2.1     2.570E-04  2.7
   7060. 1.4164     2.970E-04  2.4     2.380E-04  3.2
   7080. 1.4124     2.770E-04  2.9     2.180E-04  3.9
   7100. 1.4085     2.500E-04  2.5     1.940E-04  3.5
   7120. 1.4045     2.200E-04  3.6     1.690E-04  5.1
   7140. 1.4006     1.890E-04  3.9     1.450E-04  5.4
   7160. 1.3966     1.550E-04  5.4     1.180E-04  7.5
   7180. 1.3928     1.220E-04  3.1     9.230E-05  4.8
   7200. 1.3889     9.700E-05  2.7     7.350E-05  4.2
   7220. 1.3850     7.940E-05  3.1     6.070E-05  4.7
   7240. 1.3812     6.580E-05  2.3     5.090E-05  3.7
   7260. 1.3774     5.680E-05  1.9     4.460E-05  3.3
   7280. 1.3736     5.070E-05  1.7     4.080E-05  2.7
   7300. 1.3699     4.600E-05  1.8     3.760E-05  2.8
   7320. 1.3661     4.300E-05  1.3     3.580E-05  2.2
   7340. 1.3624     4.040E-05  1.3     3.400E-05  2.1
   7360. 1.3587     3.840E-05  1.8     3.270E-05  2.5
   7380. 1.3550     3.660E-05  1.9     3.140E-05  2.5
   7400. 1.3514     3.480E-05  2.1     3.030E-05  2.7
   7420. 1.3477     3.320E-05  1.6     2.910E-05  2.2
   7440. 1.3441     3.090E-05  1.7     2.760E-05  2.2
   7460. 1.3405     2.880E-05  1.1     2.600E-05  1.5
   7480. 1.3369     2.700E-05  1.3     2.450E-05  1.6
   7500. 1.3333     2.500E-05  1.2     2.300E-05  1.6
   7520. 1.3298     2.330E-05  1.1     2.160E-05  1.3
   7540. 1.3263     2.160E-05  1.3     2.020E-05  1.5
   7560. 1.3228     2.010E-05  1.1     1.900E-05  1.3
   7580. 1.3193     1.880E-05  1.2     1.780E-05  1.3
   7600. 1.3158     1.750E-05  1.5     1.680E-05  1.6
   7620. 1.3123     1.650E-05  1.1     1.590E-05  1.1
   7640. 1.3089     1.550E-05  1.4     1.520E-05  1.5
   7660. 1.3055     1.470E-05  1.3     1.450E-05  1.4
   7680. 1.3021     1.400E-05  1.3     1.390E-05  1.4
   7700. 1.2987     1.340E-05  1.1     1.350E-05  1.2
   7720. 1.2953     1.290E-05  1.8     1.300E-05  1.8
   7740. 1.2920     1.250E-05  1.4     1.270E-05  1.5
   7760. 1.2887     1.210E-05  1.1     1.240E-05  1.3
   7780. 1.2853     1.190E-05  1.5     1.210E-05  1.6
   7800. 1.2821     1.160E-05  1.9     1.200E-05  1.9
   7820. 1.2788     1.130E-05  1.4     1.190E-05  1.6
   7840. 1.2755     1.120E-05  1.2     1.180E-05  1.4
   7860. 1.2723     1.100E-05  1.6     1.170E-05  1.7
   7880. 1.2690     1.090E-05  1.6     1.170E-05  1.7
   7900. 1.2658     1.090E-05  1.6     1.170E-05  1.7
   7920. 1.2626     1.090E-05  1.6     1.170E-05  1.7
   7940. 1.2594     1.100E-05  1.8     1.190E-05  1.8
   7960. 1.2563     1.100E-05  1.5     1.200E-05  1.6
   7980. 1.2531     1.100E-05  1.7     1.190E-05  1.9
   8000. 1.2500     1.110E-05  1.6     1.210E-05  1.7
   8020. 1.2469     1.120E-05  2.0     1.220E-05  2.0
   8040. 1.2438     1.130E-05  1.5     1.230E-05  1.6
   8060. 1.2407     1.140E-05  1.5     1.240E-05  1.6
   8080. 1.2376     1.140E-05  1.6     1.240E-05  1.7
   8100. 1.2346     1.150E-05  1.8     1.250E-05  1.8
   8120. 1.2315     1.160E-05  1.7     1.250E-05  1.8
   8140. 1.2285     1.170E-05  1.5     1.250E-05  1.8
   8160. 1.2255     1.170E-05  1.4     1.260E-05  1.6
   8180. 1.2225     1.180E-05  2.0     1.260E-05  2.1
   8200. 1.2195     1.180E-05  1.5     1.250E-05  1.7
   8220. 1.2165     1.200E-05  1.6     1.260E-05  1.8
   8240. 1.2136     1.200E-05  1.7     1.250E-05  1.8
   8260. 1.2107     1.210E-05  1.2     1.250E-05  1.3
   8280. 1.2077     1.210E-05  1.8     1.240E-05  2.0
   8300. 1.2048     1.220E-05  1.5     1.250E-05  1.8
   8320. 1.2019     1.210E-05  1.9     1.220E-05  2.0
   8340. 1.1990     1.220E-05  1.2     1.220E-05  1.3
   8360. 1.1962     1.220E-05  1.3     1.200E-05  1.5
   8380. 1.1933     1.210E-05  1.7     1.190E-05  1.9
   8400. 1.1905     1.200E-05  1.6     1.160E-05  1.7
   8420. 1.1876     1.190E-05  1.5     1.150E-05  1.6
   8440. 1.1848     1.180E-05  1.4     1.120E-05  1.6
   8460. 1.1820     1.170E-05  1.5     1.100E-05  1.8
   8480. 1.1792     1.160E-05  1.7     1.080E-05  2.0
   8500. 1.1765     1.150E-05  1.4     1.050E-05  1.7
   8520. 1.1737     1.150E-05  1.4     1.030E-05  1.7
   8540. 1.1710     1.130E-05  1.8     9.990E-06  2.2
   8560. 1.1682     1.120E-05  1.6     9.790E-06  2.1
   8580. 1.1655     1.110E-05  1.5     9.520E-06  2.0
   8600. 1.1628     1.100E-05  1.6     9.210E-06  2.2
   8620. 1.1601     1.080E-05  2.0     8.890E-06  2.7
   8640. 1.1574     1.050E-05  2.0     8.470E-06  2.9
   8660. 1.1547     1.010E-05  1.9     8.060E-06  2.7
   8680. 1.1521     9.540E-06  1.8     7.530E-06  2.6
   8700. 1.1494     8.680E-06  1.3     7.070E-06  2.2
   8720. 1.1468     7.840E-06  2.0     6.430E-06  2.8
   8740. 1.1442     6.860E-06  1.6     5.680E-06  2.4
   8760. 1.1416     5.920E-06  1.4     4.970E-06  2.1
   8780. 1.1390     5.050E-06  1.7     4.300E-06  2.4
   8800. 1.1364     4.260E-06  2.6     3.670E-06  3.3
   8820. 1.1338     3.640E-06  1.6     3.200E-06  2.2
   8840. 1.1312     3.180E-06  2.6     2.840E-06  3.2
   8860. 1.1287     2.840E-06  1.9     2.580E-06  2.7
   8880. 1.1261     2.590E-06  2.6     2.380E-06  3.3
   8900. 1.1236     2.430E-06  2.5     2.280E-06  3.4
   8920. 1.1211     2.300E-06  2.9     2.170E-06  3.7
   8940. 1.1186     2.180E-06  3.2     2.090E-06  3.9
   8960. 1.1161     2.090E-06  3.0     2.020E-06  3.8
   8980. 1.1136     2.070E-06  3.2     1.960E-06  3.9
   9000. 1.1111     1.990E-06  3.0     1.900E-06  4.4
   9020. 1.1086     1.910E-06  2.9     1.840E-06  3.7
   9040. 1.1062     1.830E-06  2.7     1.780E-06  4.8
   9060. 1.1038     1.760E-06  2.7     1.720E-06  5.0
   9080. 1.1013     1.690E-06  2.6     1.660E-06  4.8
   9100. 1.0989     1.630E-06  2.5     1.610E-06  5.2
   9120. 1.0965     1.550E-06  2.5     1.560E-06  4.8
   9140. 1.0941     1.490E-06  2.4     1.510E-06  5.9
   9160. 1.0917     1.440E-06  2.5     1.440E-06  5.3
   9180. 1.0893     1.390E-06  2.4     1.410E-06  4.6
   9200. 1.0870     1.350E-06  2.4     1.380E-06  6.3
   9220. 1.0846     1.310E-06  2.4     1.350E-06  6.4
   9240. 1.0823     1.270E-06  2.3     1.310E-06  6.1
   9260. 1.0799     1.240E-06  2.3     1.300E-06  6.1
   9280. 1.0776     1.230E-06  2.3     1.270E-06  6.3
   9300. 1.0753     1.210E-06  2.3     1.260E-06  6.7
   9320. 1.0730     1.200E-06  2.3     1.280E-06  6.6
   9340. 1.0707     1.200E-06  2.2     1.260E-06  5.8
   9360. 1.0684     1.200E-06  2.2     1.290E-06  7.0
   9380. 1.0661     1.210E-06  2.2     1.300E-06  6.8
   9400. 1.0638     1.220E-06  2.2     1.300E-06  5.2
   9420. 1.0616     1.230E-06  2.2     1.350E-06  5.8
   9440. 1.0593     1.260E-06  2.2     1.350E-06  6.2
   9460. 1.0571     1.280E-06  2.2     1.370E-06  6.5
   9480. 1.0549     1.310E-06  2.1     1.440E-06  5.5
   9500. 1.0526     1.350E-06  2.1     1.470E-06  5.3
   9520. 1.0504     1.390E-06  2.1     1.530E-06  5.9
   9540. 1.0482     1.430E-06  2.1     1.570E-06  5.2
   9560. 1.0460     1.490E-06  2.1     1.630E-06  4.8
   9580. 1.0438     1.550E-06  2.1     1.710E-06  5.8
   9600. 1.0417     1.610E-06  2.1     1.750E-06  5.4
   9620. 1.0395     1.670E-06  2.1     1.830E-06  5.4
   9640. 1.0373     1.740E-06  2.1     1.900E-06  4.3
   9660. 1.0352     1.810E-06  2.1     1.970E-06  5.0
   9680. 1.0331     1.890E-06  2.1     2.040E-06  4.8
   9700. 1.0309     1.960E-06  2.1     2.130E-06  3.7
   9720. 1.0288     2.050E-06  2.1     2.210E-06  3.8
   9740. 1.0267     2.140E-06  2.1     2.290E-06  4.5
   9760. 1.0246     2.220E-06  2.1     2.360E-06  3.2
   9780. 1.0225     2.310E-06  2.1     2.480E-06  3.2
   9800. 1.0204     2.400E-06  2.2     2.530E-06  4.5
   9820. 1.0183     2.500E-06  2.2     2.610E-06  3.7
   9840. 1.0163     2.580E-06  1.2     2.700E-06  4.1
   9860. 1.0142     2.660E-06   .6     2.750E-06  3.9
   9880. 1.0121     2.740E-06   .9     2.840E-06  3.4
   9900. 1.0101     2.830E-06   .6     2.920E-06  3.7
